# Depth(m)	Temperature(C)
7.000000000000000000e+05	1.850630000000000791e+03
6.960000000000000000e+05	1.838931565217391835e+03
6.920000000000000000e+05	1.827233130434782879e+03
6.880000000000000000e+05	1.816953801242236068e+03
6.840000000000000000e+05	1.808093577639751402e+03
6.800000000000000000e+05	1.799233354037266736e+03
6.760000000000000000e+05	1.793579639751552577e+03
6.720000000000000000e+05	1.787925925465838191e+03
6.680000000000000000e+05	1.783224372670807270e+03
6.640000000000000000e+05	1.779474981366459360e+03
6.600000000000000000e+05	1.775725590062111451e+03
6.560000000000000000e+05	1.772786633540372577e+03
6.520000000000000000e+05	1.769847677018633476e+03
6.480000000000000000e+05	1.767062782608695670e+03
6.440000000000000000e+05	1.764431950310558932e+03
6.400000000000000000e+05	1.761801118012422194e+03
6.360000000000000000e+05	1.759313267080745163e+03
6.320000000000000000e+05	1.756825416149068133e+03
6.280000000000000000e+05	1.754390472049689379e+03
6.240000000000000000e+05	1.752008434782608447e+03
6.200000000000000000e+05	1.749626397515527742e+03
6.160000000000000000e+05	1.747348583850931618e+03
6.120000000000000000e+05	1.745070770186335494e+03
6.080000000000000000e+05	1.742842993788819967e+03
6.040000000000000000e+05	1.740665254658385265e+03
6.000000000000000000e+05	1.738487515527950336e+03
5.960000000000000000e+05	1.736400335403726785e+03
5.920000000000000000e+05	1.734313155279503235e+03
5.880000000000000000e+05	1.732262186335403612e+03
5.840000000000000000e+05	1.730247428571428372e+03
5.800000000000000000e+05	1.728232670807453133e+03
5.760000000000000000e+05	1.726272422360248356e+03
5.720000000000000000e+05	1.724312173913043580e+03
5.680000000000000000e+05	1.722374173913043705e+03
5.640000000000000000e+05	1.720458422360248505e+03
5.600000000000000000e+05	1.718542670807453305e+03
5.560000000000000000e+05	1.716660906832297997e+03
5.520000000000000000e+05	1.714779142857142688e+03
5.480000000000000000e+05	1.712904608695651859e+03
5.440000000000000000e+05	1.711037304347825966e+03
5.400000000000000000e+05	1.709170000000000073e+03
5.360000000000000000e+05	1.707285701863354234e+03
5.320000000000000000e+05	1.705401403726708395e+03
5.280000000000000000e+05	1.703492534161490767e+03
5.240000000000000000e+05	1.701559093167701803e+03
5.200000000000000000e+05	1.699625652173912840e+03
5.160000000000000000e+05	1.697625204968944217e+03
5.120000000000000000e+05	1.695624757763975367e+03
5.080000000000000000e+05	1.693589975155279944e+03
5.040000000000000000e+05	1.691520857142857494e+03
5.000000000000000000e+05	1.689451739130435044e+03
4.960000000000000000e+05	1.687322372670807681e+03
4.920000000000000000e+05	1.685193006211180091e+03
4.880000000000000000e+05	1.683044335403726791e+03
4.840000000000000000e+05	1.680876360248447327e+03
4.800000000000000000e+05	1.678708385093168090e+03
4.760000000000000000e+05	1.676540708074534450e+03
4.720000000000000000e+05	1.674373031055900583e+03
4.680000000000000000e+05	1.672216360248447245e+03
4.640000000000000000e+05	1.670070695652173981e+03
4.600000000000000000e+05	1.667925031055900945e+03
4.560000000000000000e+05	1.665812459627329417e+03
4.520000000000000000e+05	1.663699888198757890e+03
4.480000000000000000e+05	1.661602111801242245e+03
4.440000000000000000e+05	1.659519130434782483e+03
4.400000000000000000e+05	1.657436149068322720e+03
4.360000000000000000e+05	1.655381068322981264e+03
4.320000000000000000e+05	1.653325987577639580e+03
4.280000000000000000e+05	1.651282074534161438e+03
4.240000000000000000e+05	1.649249329192546384e+03
4.200000000000000000e+05	1.647216583850931556e+03
4.160000000000000000e+05	1.645196683229813516e+03
4.120000000000000000e+05	1.643176782608695476e+03
4.080000000000000000e+05	1.641169105590062145e+03
4.040000000000000000e+05	1.639173652173913069e+03
4.000000000000000000e+05	1.637178198757763994e+03
3.960000000000000000e+05	1.635220236024844780e+03
3.920000000000000000e+05	1.633262273291925567e+03
3.880000000000000000e+05	1.631329565217391291e+03
3.840000000000000000e+05	1.629422111801242181e+03
3.800000000000000000e+05	1.627514658385093071e+03
3.760000000000000000e+05	1.625660993788819724e+03
3.720000000000000000e+05	1.623807329192546376e+03
3.680000000000000000e+05	1.621975329192546496e+03
3.640000000000000000e+05	1.620164993788819629e+03
3.600000000000000000e+05	1.618354658385092989e+03
3.560000000000000000e+05	1.616556919254658169e+03
3.520000000000000000e+05	1.614759180124223576e+03
3.480000000000000000e+05	1.612945453416149121e+03
3.440000000000000000e+05	1.611115739130434804e+03
3.400000000000000000e+05	1.609286024844720714e+03
3.360000000000000000e+05	1.607400509316770240e+03
3.320000000000000000e+05	1.605514993788819766e+03
3.280000000000000000e+05	1.603610459627329192e+03
3.240000000000000000e+05	1.601686906832298064e+03
3.200000000000000000e+05	1.599763354037267163e+03
3.160000000000000000e+05	1.597840124223602515e+03
3.120000000000000000e+05	1.595916894409937868e+03
3.080000000000000000e+05	1.594014919254658253e+03
3.040000000000000000e+05	1.592134198757763897e+03
3.000000000000000000e+05	1.590253478260869542e+03
2.960000000000000000e+05	1.588452832298136627e+03
2.920000000000000000e+05	1.586652186335403712e+03
2.880000000000000000e+05	1.584888111801242076e+03
2.840000000000000000e+05	1.583160608695652172e+03
2.800000000000000000e+05	1.581433105590062041e+03
2.760000000000000000e+05	1.579676956521739157e+03
2.720000000000000000e+05	1.577920807453416046e+03
2.680000000000000000e+05	1.576102012422360076e+03
2.640000000000000000e+05	1.574220571428571247e+03
2.600000000000000000e+05	1.572339130434782419e+03
2.560000000000000000e+05	1.570328795031055961e+03
2.520000000000000000e+05	1.568318459627329275e+03
2.480000000000000000e+05	1.566154149068323250e+03
2.440000000000000000e+05	1.563835863354037429e+03
2.400000000000000000e+05	1.561517577639751607e+03
2.360000000000000000e+05	1.558132881987577775e+03
2.320000000000000000e+05	1.554748186335403716e+03
2.280000000000000000e+05	1.550042857142857201e+03
2.240000000000000000e+05	1.544016894409937777e+03
2.200000000000000000e+05	1.537990931677018580e+03
2.160000000000000000e+05	1.526800447204968805e+03
2.120000000000000000e+05	1.515609962732919257e+03
2.080000000000000000e+05	1.501015453416149057e+03
2.040000000000000000e+05	1.483016919254658433e+03
2.000000000000000000e+05	1.465018385093167808e+03
1.960000000000000000e+05	1.442069416149068502e+03
1.920000000000000000e+05	1.419120447204968968e+03
1.880000000000000000e+05	1.395476931677018683e+03
1.840000000000000000e+05	1.371138869565217419e+03
1.800000000000000000e+05	1.346800807453416155e+03
1.760000000000000000e+05	1.322530198757763856e+03
1.720000000000000000e+05	1.298259590062111783e+03
1.680000000000000000e+05	1.273952409937888206e+03
1.640000000000000000e+05	1.249608658385093122e+03
1.600000000000000000e+05	1.225264906832298038e+03
1.560000000000000000e+05	1.200644807453415979e+03
1.520000000000000000e+05	1.176024708074534146e+03
1.480000000000000000e+05	1.151215267080745207e+03
1.440000000000000000e+05	1.126216484472049615e+03
1.400000000000000000e+05	1.101217701863354023e+03
1.360000000000000000e+05	1.075841006211180002e+03
1.320000000000000000e+05	1.050464310559006208e+03
1.280000000000000000e+05	1.024909503105589920e+03
1.240000000000000000e+05	9.991765838509315927e+02
1.200000000000000000e+05	9.734436645962732655e+02
1.160000000000000000e+05	9.473709142857142069e+02
1.120000000000000000e+05	9.212981639751552621e+02
1.080000000000000000e+05	8.950610720496894146e+02
1.040000000000000000e+05	8.686596385093166646e+02
1.000000000000000000e+05	8.422582049689440282e+02
9.600000000000000000e+04	8.155368509316770087e+02
9.200000000000000000e+04	7.888154968944098755e+02
8.800000000000000000e+04	7.618178956521738883e+02
8.400000000000000000e+04	7.345440472049689333e+02
8.000000000000000000e+04	7.072701987577639784e+02
7.600000000000000000e+04	6.773110881987577159e+02
7.200000000000000000e+04	6.473519776397514534e+02
6.800000000000000000e+04	6.129201888198757615e+02
6.400000000000000000e+04	5.740157217391304130e+02
6.000000000000000000e+04	5.351112546583850644e+02
5.600000000000000000e+04	4.774648273291925307e+02
5.200000000000000000e+04	4.198183999999999401e+02
4.800000000000000000e+04	3.504540062111800580e+02
4.400000000000000000e+04	2.693716459627329414e+02
4.000000000000000000e+04	1.882892857142857395e+02
3.600000000000000000e+04	1.129735714285714323e+02
3.200000000000000000e+04	3.765785714285714647e+01
2.800000000000000000e+04	0.000000000000000000e+00
2.400000000000000000e+04	0.000000000000000000e+00
2.000000000000000000e+04	0.000000000000000000e+00
1.600000000000000000e+04	0.000000000000000000e+00
1.200000000000000000e+04	0.000000000000000000e+00
8.000000000000000000e+03	0.000000000000000000e+00
4.000000000000000000e+03	0.000000000000000000e+00
0.000000000000000000e+00	0.000000000000000000e+00
