# Depth(m)	Temperature(C)
7.000000000000000000e+05	1.780630000000000791e+03
6.960000000000000000e+05	1.758456832298136987e+03
6.920000000000000000e+05	1.736283664596273411e+03
6.880000000000000000e+05	1.716610310559006166e+03
6.840000000000000000e+05	1.699436770186335252e+03
6.800000000000000000e+05	1.682263229813664566e+03
6.760000000000000000e+05	1.671289018633540309e+03
6.720000000000000000e+05	1.660314807453416279e+03
6.680000000000000000e+05	1.651515689440993810e+03
6.640000000000000000e+05	1.644891664596273358e+03
6.600000000000000000e+05	1.638267639751552906e+03
6.560000000000000000e+05	1.633934322981366677e+03
6.520000000000000000e+05	1.629601006211180220e+03
6.480000000000000000e+05	1.625821341614906942e+03
6.440000000000000000e+05	1.622595329192546842e+03
6.400000000000000000e+05	1.619369316770186515e+03
6.360000000000000000e+05	1.616722459627329272e+03
6.320000000000000000e+05	1.614075602484472029e+03
6.280000000000000000e+05	1.611602074534161375e+03
6.240000000000000000e+05	1.609301875776397537e+03
6.200000000000000000e+05	1.607001677018633700e+03
6.160000000000000000e+05	1.604942645962732968e+03
6.120000000000000000e+05	1.602883614906832236e+03
6.080000000000000000e+05	1.600915130434782668e+03
6.040000000000000000e+05	1.599037192546583810e+03
6.000000000000000000e+05	1.597159254658385180e+03
5.960000000000000000e+05	1.595420596273291949e+03
5.920000000000000000e+05	1.593681937888198718e+03
5.880000000000000000e+05	1.591993465838509110e+03
5.840000000000000000e+05	1.590355180124223580e+03
5.800000000000000000e+05	1.588716894409937822e+03
5.760000000000000000e+05	1.587132670807453223e+03
5.720000000000000000e+05	1.585548447204968852e+03
5.680000000000000000e+05	1.583965527950310388e+03
5.640000000000000000e+05	1.582383913043478287e+03
5.600000000000000000e+05	1.580802298136645959e+03
5.560000000000000000e+05	1.579179465838509259e+03
5.520000000000000000e+05	1.577556633540372559e+03
5.480000000000000000e+05	1.575900074534161377e+03
5.440000000000000000e+05	1.574209788819875712e+03
5.400000000000000000e+05	1.572519503105590047e+03
5.360000000000000000e+05	1.570759751552795024e+03
5.320000000000000000e+05	1.569000000000000227e+03
5.280000000000000000e+05	1.567212968944099657e+03
5.240000000000000000e+05	1.565398658385093313e+03
5.200000000000000000e+05	1.563584347826086969e+03
5.160000000000000000e+05	1.561739354037267049e+03
5.120000000000000000e+05	1.559894360248447128e+03
5.080000000000000000e+05	1.558040236024844717e+03
5.040000000000000000e+05	1.556176981366459586e+03
5.000000000000000000e+05	1.554313726708074682e+03
4.960000000000000000e+05	1.552431267080745329e+03
4.920000000000000000e+05	1.550548807453416202e+03
4.880000000000000000e+05	1.548653689440993730e+03
4.840000000000000000e+05	1.546745913043478367e+03
4.800000000000000000e+05	1.544838136645962777e+03
4.760000000000000000e+05	1.542901192546583843e+03
4.720000000000000000e+05	1.540964248447204909e+03
4.680000000000000000e+05	1.539018248447204996e+03
4.640000000000000000e+05	1.537063192546583878e+03
4.600000000000000000e+05	1.535108136645962759e+03
4.560000000000000000e+05	1.533165900621117999e+03
4.520000000000000000e+05	1.531223664596273238e+03
4.480000000000000000e+05	1.529306496894409747e+03
4.440000000000000000e+05	1.527414397515527980e+03
4.400000000000000000e+05	1.525522298136646214e+03
4.360000000000000000e+05	1.523703242236025062e+03
4.320000000000000000e+05	1.521884186335403683e+03
4.280000000000000000e+05	1.520102621118012394e+03
4.240000000000000000e+05	1.518358546583850739e+03
4.200000000000000000e+05	1.516614472049689311e+03
4.160000000000000000e+05	1.514932509316770165e+03
4.120000000000000000e+05	1.513250546583850792e+03
4.080000000000000000e+05	1.511586074534161526e+03
4.040000000000000000e+05	1.509939093167701913e+03
4.000000000000000000e+05	1.508292111801242299e+03
3.960000000000000000e+05	1.506637329192546531e+03
3.920000000000000000e+05	1.504982546583850763e+03
3.880000000000000000e+05	1.503289863354037152e+03
3.840000000000000000e+05	1.501559279503105472e+03
3.800000000000000000e+05	1.499828695652174019e+03
3.760000000000000000e+05	1.497946559006211146e+03
3.720000000000000000e+05	1.496064422360248500e+03
3.680000000000000000e+05	1.494078571428571422e+03
3.640000000000000000e+05	1.491989006211180140e+03
3.600000000000000000e+05	1.489899440993788858e+03
3.560000000000000000e+05	1.487632111801242218e+03
3.520000000000000000e+05	1.485364782608695350e+03
3.480000000000000000e+05	1.483074968944099055e+03
3.440000000000000000e+05	1.480762670807453333e+03
3.400000000000000000e+05	1.478450372670807610e+03
3.360000000000000000e+05	1.476219788819875930e+03
3.320000000000000000e+05	1.473989204968944250e+03
3.280000000000000000e+05	1.471818658385093158e+03
3.240000000000000000e+05	1.469708149068323110e+03
3.200000000000000000e+05	1.467597639751552833e+03
3.160000000000000000e+05	1.465611950310558996e+03
3.120000000000000000e+05	1.463626260869565158e+03
3.080000000000000000e+05	1.461705068322981333e+03
3.040000000000000000e+05	1.459848372670807521e+03
3.000000000000000000e+05	1.457991677018633482e+03
2.960000000000000000e+05	1.456263080745341540e+03
2.920000000000000000e+05	1.454534484472049598e+03
2.880000000000000000e+05	1.452859478260869537e+03
2.840000000000000000e+05	1.451238062111801355e+03
2.800000000000000000e+05	1.449616645962733173e+03
2.760000000000000000e+05	1.448075552795031172e+03
2.720000000000000000e+05	1.446534459627329170e+03
2.680000000000000000e+05	1.445032099378881867e+03
2.640000000000000000e+05	1.443568472049689490e+03
2.600000000000000000e+05	1.442104844720496885e+03
2.560000000000000000e+05	1.440736049689440961e+03
2.520000000000000000e+05	1.439367254658385036e+03
2.480000000000000000e+05	1.438050919254658311e+03
2.440000000000000000e+05	1.436787043478260784e+03
2.400000000000000000e+05	1.435523167701863258e+03
2.360000000000000000e+05	1.434363714285714195e+03
2.320000000000000000e+05	1.433204260869565132e+03
2.280000000000000000e+05	1.432094546583850843e+03
2.240000000000000000e+05	1.431034571428571553e+03
2.200000000000000000e+05	1.429974596273292036e+03
2.160000000000000000e+05	1.428995416149068433e+03
2.120000000000000000e+05	1.428016236024845057e+03
2.080000000000000000e+05	1.427039801242236308e+03
2.040000000000000000e+05	1.426066111801242414e+03
2.000000000000000000e+05	1.425092422360248520e+03
1.960000000000000000e+05	1.423949664596273351e+03
1.920000000000000000e+05	1.422806906832297955e+03
1.880000000000000000e+05	1.421418124223602263e+03
1.840000000000000000e+05	1.419783316770186275e+03
1.800000000000000000e+05	1.418148509316770287e+03
1.760000000000000000e+05	1.415339366459627399e+03
1.720000000000000000e+05	1.412530223602484512e+03
1.680000000000000000e+05	1.408461701863354165e+03
1.640000000000000000e+05	1.403133801242236132e+03
1.600000000000000000e+05	1.397805900621118099e+03
1.560000000000000000e+05	1.387751639751552830e+03
1.520000000000000000e+05	1.377697378881987561e+03
1.480000000000000000e+05	1.363456894409938059e+03
1.440000000000000000e+05	1.345030186335403869e+03
1.400000000000000000e+05	1.326603478260869679e+03
1.360000000000000000e+05	1.297664173913043669e+03
1.320000000000000000e+05	1.268724869565217659e+03
1.280000000000000000e+05	1.237129192546584136e+03
1.240000000000000000e+05	1.202877142857143099e+03
1.200000000000000000e+05	1.168625093167702062e+03
1.160000000000000000e+05	1.134040322981366671e+03
1.120000000000000000e+05	1.099455552795031053e+03
1.080000000000000000e+05	1.064753121739130393e+03
1.040000000000000000e+05	1.029933029813664461e+03
1.000000000000000000e+05	9.951129378881986440e+02
9.600000000000000000e+04	9.598912285714285417e+02
9.200000000000000000e+04	9.246695192546584394e+02
8.800000000000000000e+04	8.891196608695653367e+02
8.400000000000000000e+04	8.532416534161491199e+02
8.000000000000000000e+04	8.173636459627329032e+02
7.600000000000000000e+04	7.786331987577639211e+02
7.200000000000000000e+04	7.399027515527949390e+02
6.800000000000000000e+04	6.965279167701862661e+02
6.400000000000000000e+04	6.485086944099379025e+02
6.000000000000000000e+04	6.004894720496894251e+02
5.600000000000000000e+04	5.332881925465839004e+02
5.200000000000000000e+04	4.660869130434782619e+02
4.800000000000000000e+04	3.872057279503105747e+02
4.400000000000000000e+04	2.966446372670807818e+02
4.000000000000000000e+04	2.060835465838509322e+02
3.600000000000000000e+04	1.236501279503105479e+02
3.200000000000000000e+04	4.121670931677018501e+01
2.800000000000000000e+04	0.000000000000000000e+00
2.400000000000000000e+04	0.000000000000000000e+00
2.000000000000000000e+04	0.000000000000000000e+00
1.600000000000000000e+04	0.000000000000000000e+00
1.200000000000000000e+04	0.000000000000000000e+00
8.000000000000000000e+03	0.000000000000000000e+00
4.000000000000000000e+03	0.000000000000000000e+00
0.000000000000000000e+00	0.000000000000000000e+00
